Forced Bandwidth (Kbps),Bandwidth (Kbps),Transfer (KBytes),Interval (sec)
0,30.1,75.0,20.3814
10,10.1,12.4,10.0557
20,20.0,24.6,10.0343
30,30.0,36.7,10.0195
40,40.0,49.0,10.0245
50,50.0,61.2,10.0191
60,60.0,73.4,10.0246
70,70.0,85.6,10.0172
80,80.0,97.8,10.0163
90,89.9,110.0,10.0245
100,100.0,122.0,10.0152
110,110.0,134.0,10.0254
120,120.0,147.0,10.0153
130,36.4,96.3,21.6552